Dim : 220 X 20 X 40 mm3
Scan lenght : 200 mm
p=499.14 mm q= 4500 mm teta = 34.99 mrad
x(mm)	Slope(urad)	Slope-BestEllipse(urad)
-100	-4355.0302	-0.57797
-99.75	-4341.02017	0.27153
-99.5	-4327.03045	1.11199
-99.25	-4313.28122	1.7232
-99	-4299.81998	2.05767
-98.75	-4286.6218	2.1403
-98.5	-4273.54492	2.11283
-98.25	-4260.46801	2.09656
-98	-4247.46847	2.0141
-97.75	-4234.62072	1.791
-97.5	-4221.78872	1.56328
-97.25	-4208.84992	1.45347
-97	-4195.94638	1.31951
-96.75	-4183.23592	1.00354
-96.5	-4170.67496	0.54914
-96.25	-4158.15063	0.06916
-96	-4145.47455	-0.24805
-95.75	-4132.49243	-0.2482
-95.5	-4119.26195	0.01101
-95.25	-4105.87987	0.4328
-95	-4092.38739	0.97595
-94.75	-4078.83374	1.59122
-94.5	-4065.35579	2.14171
-94.25	-4052.09675	2.48421
-94	-4039.13739	2.53793
-93.75	-4026.53624	2.24431
-93.5	-4014.32532	1.57133
-93.25	-4002.48192	0.54168
-93	-3990.79101	-0.62964
-92.75	-3979.02144	-1.71147
-92.5	-3967.06969	-2.60035
-92.25	-3954.88202	-3.2425
-92	-3942.47581	-3.65536
-91.75	-3929.86967	-3.85754
-91.5	-3917.01579	-3.80126
-91.25	-3903.9128	-3.48514
-91	-3890.81143	-3.15995
-90.75	-3877.93882	-3.05282
-90.5	-3865.17557	-3.04439
-90.25	-3852.34055	-2.95355
-90	-3839.35221	-2.69875
-89.75	-3826.18746	-2.25692
-89.5	-3812.95742	-1.7392
-89.25	-3799.76653	-1.25004
-89	-3786.55805	-0.73272
-88.75	-3773.28466	-0.13994
-88.5	-3760.09782	0.37684
-88.25	-3747.13342	0.6817
-88	-3734.26649	0.89959
-87.75	-3721.37061	1.15692
-87.5	-3708.57454	1.32493
-87.25	-3696.01193	1.26993
-87	-3683.58096	1.09374
-86.75	-3671.14914	0.92882
-86.5	-3658.69687	0.79477
-86.25	-3646.2356	0.68011
-86	-3633.78814	0.56203
-85.75	-3621.37329	0.4217
-85.5	-3608.98275	0.26742
-85.25	-3596.59975	0.11593
-85	-3584.20089	-0.00938
-84.75	-3571.77034	-0.0927
-84.5	-3559.3292	-0.15513
-84.25	-3546.89152	-0.21076
-84	-3534.40632	-0.2086
-83.75	-3521.83965	-0.11473
-83.5	-3509.2909	-0.02855
-83.25	-3496.86134	-0.05135
-83	-3484.52647	-0.15864
-82.75	-3472.23258	-0.29673
-82.5	-3459.93496	-0.42092
-82.25	-3447.59785	-0.49546
-82	-3435.21232	-0.51146
-81.75	-3422.77076	-0.4613
-81.5	-3410.24389	-0.31571
-81.25	-3397.60945	-0.05247
-81	-3384.89512	0.30074
-80.75	-3372.14806	0.69674
-80.5	-3359.44351	1.06028
-80.25	-3346.86968	1.30314
-80	-3334.53857	1.31328
-79.75	-3322.49731	1.04359
-79.5	-3310.50952	0.73041
-79.25	-3298.35261	0.59634
-79	-3286.14241	0.52551
-78.75	-3274.03508	0.36174
-78.5	-3262.00966	0.126
-78.25	-3250.00532	-0.1209
-78	-3237.9789	-0.33582
-77.75	-3225.90959	-0.49796
-77.5	-3213.84828	-0.65823
-77.25	-3201.83396	-0.85564
-77	-3189.78636	-1.00991
-76.75	-3177.61591	-1.03152
-76.5	-3165.31523	-0.91308
-76.25	-3152.90878	-0.67907
-76	-3140.46613	-0.39906
-75.75	-3128.04608	-0.13189
-75.5	-3115.61929	0.15177
-75.25	-3103.16506	0.47263
-75	-3090.78528	0.72875
-74.75	-3078.579	0.82109
-74.5	-3066.51116	0.7847
-74.25	-3054.52414	0.67717
-74	-3042.60425	0.51218
-73.75	-3030.74406	0.29715
-73.5	-3018.91732	0.05832
-73.25	-3007.09126	-0.17157
-73	-2995.22599	-0.35263
-72.75	-2983.31732	-0.48068
-72.5	-2971.51112	-0.70162
-72.25	-2959.9122	-1.12027
-72	-2948.31108	-1.52715
-71.75	-2936.48506	-1.69958
-71.5	-2924.47281	-1.67625
-71.25	-2912.36916	-1.55201
-71	-2900.2321	-1.38484
-70.75	-2888.09534	-1.20849
-70.5	-2875.93239	-0.99647
-70.25	-2863.72053	-0.72607
-70	-2851.51243	-0.44998
-69.75	-2839.36489	-0.22501
-69.5	-2827.27594	-0.04921
-69.25	-2815.2346	0.08839
-69	-2803.25275	0.17589
-68.75	-2791.34084	0.20284
-68.5	-2779.48076	0.18734
-68.25	-2767.64737	0.15449
-68	-2755.81602	0.12895
-67.75	-2743.98211	0.1153
-67.5	-2732.22089	0.03827
-67.25	-2720.58483	-0.15461
-67	-2708.95552	-0.34495
-66.75	-2697.23973	-0.43954
-66.5	-2685.61596	-0.61688
-66.25	-2674.23174	-1.02452
-66	-2662.83899	-1.41441
-65.75	-2651.17943	-1.52825
-65.5	-2639.34941	-1.46242
-65.25	-2627.49229	-1.3603
-65	-2615.58494	-1.19876
-64.75	-2603.59823	-0.94869
-64.5	-2591.64563	-0.72357
-64.25	-2579.82453	-0.62081
-64	-2568.02533	-0.53082
-63.75	-2556.12438	-0.32996
-63.5	-2544.1488	-0.04536
-63.25	-2532.17715	0.24441
-63	-2520.34294	0.40581
-62.75	-2508.72502	0.35999
-62.5	-2497.12847	0.30186
-62.25	-2485.36642	0.41826
-62	-2473.55797	0.5901
-61.75	-2461.86402	0.65645
-61.5	-2450.30673	0.59514
-61.25	-2438.84726	0.44501
-61	-2427.34134	0.35031
-60.75	-2415.68016	0.41982
-60.5	-2404.00214	0.51514
-60.25	-2392.45665	0.48686
-60	-2380.98989	0.38878
-59.75	-2369.4967	0.32605
-59.5	-2357.86981	0.40592
-59.25	-2346.07517	0.66243
-59	-2334.37379	0.83456
-58.75	-2322.98769	0.70026
-58.5	-2311.68808	0.48834
-58.25	-2300.21817	0.45556
-58	-2288.66022	0.51964
-57.75	-2277.14272	0.55209
-57.5	-2265.64005	0.57851
-57.25	-2254.11292	0.63818
-57	-2242.62148	0.67094
-56.75	-2231.25198	0.59053
-56.5	-2220.09563	0.30573
-56.25	-2209.18449	-0.21555
-56	-2198.30912	-0.76387
-55.75	-2187.26466	-1.13437
-55.5	-2176.10599	-1.38197
-55.25	-2164.92946	-1.60301
-55	-2153.73746	-1.7999
-54.75	-2142.50245	-1.9451
-54.5	-2131.17114	-1.98535
-54.25	-2119.70591	-1.88303
-54	-2108.15755	-1.68896
-53.75	-2096.58115	-1.45822
-53.5	-2084.96044	-1.17457
-53.25	-2073.273	-0.81558
-53	-2061.543	-0.40545
-52.75	-2049.78517	0.04108
-52.5	-2037.92993	0.59358
-52.25	-2025.94823	1.2811
-52	-2014.05748	1.8862
-51.75	-2002.46333	2.20323
-51.5	-1991.07793	2.32003
-51.25	-1979.78737	2.35048
-51	-1968.66708	2.21916
-50.75	-1957.79099	1.85211
-50.5	-1947.03774	1.37071
-50.25	-1936.27445	0.90778
-50	-1925.51759	0.44688
-49.75	-1914.79657	-0.04144
-49.5	-1904.04344	-0.48922
-49.25	-1893.19428	-0.83256
-49	-1882.2987	-1.12108
-48.75	-1871.39899	-1.39709
-48.5	-1860.39463	-1.56008
-48.25	-1849.1966	-1.52102
-48	-1837.90467	-1.37972
-47.75	-1826.61718	-1.23451
-47.5	-1815.23786	-0.98916
-47.25	-1803.67583	-0.55276
-47	-1792.05629	-0.05055
-46.75	-1780.52615	0.37055
-46.5	-1769.10296	0.69298
-46.25	-1757.78798	0.91548
-46	-1746.64656	0.97268
-45.75	-1735.72873	0.81454
-45.5	-1724.95901	0.51654
-45.25	-1714.23294	0.1831
-45	-1703.45567	-0.09093
-44.75	-1692.57142	-0.24975
-44.5	-1681.6709	-0.38412
-44.25	-1670.83208	-0.572
-44	-1659.93514	-0.6936
-43.75	-1648.84874	-0.61757
-43.5	-1637.59309	-0.36415
-43.25	-1626.24217	-0.00732
-43	-1614.93341	0.3155
-42.75	-1603.77244	0.49862
-42.5	-1592.67438	0.62694
-42.25	-1581.54052	0.79916
-42	-1570.40734	0.97879
-41.75	-1559.33267	1.10798
-41.5	-1548.32455	1.17867
-41.25	-1537.37165	1.2022
-41	-1526.4349	1.21762
-40.75	-1515.49672	1.2425
-40.5	-1504.65312	1.18081
-40.25	-1493.98443	0.95223
-40	-1483.39463	0.65275
-39.75	-1472.76912	0.39696
-39.5	-1462.09545	0.19732
-39.25	-1451.37755	0.04987
-39	-1440.58294	-0.01292
-38.75	-1429.6817	0.03886
-38.5	-1418.69061	0.18844
-38.25	-1407.66199	0.38345
-38	-1396.7439	0.47585
-37.75	-1386.04967	0.3523
-37.5	-1375.45823	0.13383
-37.25	-1364.82169	-0.03164
-37	-1354.1192	-0.1233
-36.75	-1343.37408	-0.16447
-36.5	-1332.65928	-0.22811
-36.25	-1322.03943	-0.37886
-36	-1311.49638	-0.59859
-35.75	-1300.99498	-0.85215
-35.5	-1290.5149	-1.11923
-35.25	-1280.03125	-1.37494
-35	-1269.48601	-1.56127
-34.75	-1258.821	-1.62005
-34.5	-1248.01035	-1.52544
-34.25	-1237.04554	-1.26891
-34	-1225.95495	-0.87885
-33.75	-1214.75588	-0.37257
-33.5	-1203.38439	0.31384
-33.25	-1191.81869	1.20218
-33	-1180.28685	2.06435
-32.75	-1169.01716	2.67208
-32.5	-1157.98891	3.04605
-32.25	-1147.13923	3.24912
-32	-1136.48555	3.26385
-31.75	-1126.0432	3.0749
-31.5	-1115.73873	2.75572
-31.25	-1105.50831	2.37012
-31	-1095.41536	1.85467
-30.75	-1085.50998	1.15927
-30.5	-1075.66174	0.41432
-30.25	-1065.72685	-0.23638
-30	-1055.6885	-0.77604
-29.75	-1045.56933	-1.22731
-29.5	-1035.42285	-1.6437
-29.25	-1025.25299	-2.02916
-29	-1014.83455	-2.1585
-28.75	-1003.98141	-1.84561
-28.5	-992.89279	-1.28972
-28.25	-981.81925	-0.7414
-28	-970.83118	-0.27103
-27.75	-959.93581	0.11411
-27.5	-949.068	0.47919
-27.25	-938.18096	0.87097
-27	-927.37391	1.19022
-26.75	-916.74166	1.34213
-26.5	-906.21542	1.39547
-26.25	-895.70098	1.44444
-26	-885.16605	1.52133
-25.75	-874.61055	1.62621
-25.5	-864.10121	1.69233
-25.25	-853.70354	1.65417
-25	-843.4112	1.51807
-24.75	-833.22053	1.28768
-24.5	-823.2103	0.88422
-24.25	-813.41725	0.27092
-24	-803.62738	-0.3382
-23.75	-793.63012	-0.73259
-23.5	-783.47929	-0.96608
-23.25	-773.27623	-1.14003
-23	-763.04785	-1.28135
-22.75	-752.78506	-1.38095
-22.5	-742.40921	-1.36021
-22.25	-731.86294	-1.16177
-22	-721.24352	-0.8829
-21.75	-710.65799	-0.63066
-21.5	-700.09784	-0.39654
-21.25	-689.53662	-0.15412
-21	-678.99184	0.0791
-20.75	-668.47756	0.28905
-20.5	-657.95039	0.5191
-20.25	-647.37452	0.80505
-20	-636.80209	1.09476
-19.75	-626.29516	1.32617
-19.5	-615.86765	1.48532
-19.25	-605.51872	1.57307
-19	-595.23652	1.60125
-18.75	-585.01477	1.57613
-18.5	-574.88046	1.4707
-18.25	-564.84643	1.27213
-18	-554.83554	1.05756
-17.75	-544.77457	0.90017
-17.5	-534.69605	0.76743
-17.25	-524.64823	0.61109
-17	-514.63645	0.4258
-16.75	-504.65735	0.2149
-16.5	-494.71561	-0.02629
-16.25	-484.81918	-0.30572
-16	-474.98098	-0.63634
-15.75	-465.19127	-1.0084
-15.5	-455.34456	-1.31644
-15.25	-445.34083	-1.46042
-15	-435.19745	-1.45775
-14.75	-424.95656	-1.35056
-14.5	-414.6418	-1.1625
-14.25	-404.29849	-0.93891
-14	-394.07716	-0.83032
-13.75	-384.07252	-0.93145
-13.5	-374.05084	-1.00857
-13.25	-363.77293	-0.82251
-13	-353.30624	-0.44073
-12.75	-342.78577	0.00176
-12.5	-332.31013	0.40635
-12.25	-321.94096	0.71139
-12	-311.62837	0.96675
-11.75	-301.31761	1.2272
-11.5	-291.04603	1.45534
-11.25	-280.86159	1.60322
-11	-270.76241	1.67273
-10.75	-260.73757	1.67475
-10.5	-250.78992	1.60644
-10.25	-240.92802	1.45924
-10	-231.16955	1.21544
-9.75	-221.52131	0.86823
-9.5	-211.93732	0.4636
-9.25	-202.36704	0.05207
-9	-192.79429	-0.35019
-8.75	-183.20362	-0.72772
-8.5	-173.54783	-1.03335
-8.25	-163.78943	-1.2296
-8	-153.96132	-1.34936
-7.75	-144.09445	-1.4236
-7.5	-134.14155	-1.40506
-7.25	-124.04221	-1.23333
-7	-113.76167	-0.87367
-6.75	-103.30433	-0.33049
-6.5	-92.80577	0.26064
-6.25	-82.41401	0.75168
-6	-72.19584	1.07584
-5.75	-62.16635	1.21801
-5.5	-52.21505	1.28866
-5.25	-42.23988	1.38987
-5	-32.29799	1.46447
-4.75	-22.47042	1.4314
-4.5	-12.77462	1.27322
-4.25	-3.19887	1.00163
-4	6.32159	0.6814
-3.75	15.83093	0.35667
-3.5	25.2379	-0.06382
-3.25	34.48211	-0.64045
-3	43.76225	-1.17455
-2.75	53.27393	-1.47053
-2.5	62.94152	-1.604
-2.25	72.65433	-1.68567
-2	82.43269	-1.69523
-1.75	92.32571	-1.58356
-1.5	102.36664	-1.31743
-1.25	112.56021	-0.8921
-1	122.81306	-0.40097
-0.75	133.00727	0.03806
-0.5	143.02501	0.30713
-0.25	152.80201	0.34197
0	162.48833	0.29264
0.25	172.23046	0.30562
0.5	181.94638	0.29888
0.75	191.55356	0.18988
1	201.19607	0.12268
1.25	211.01037	0.23374
1.5	220.87622	0.4028
1.75	230.64563	0.48187
2	240.31656	0.4689
2.25	249.91892	0.39379
2.5	259.46454	0.26838
2.75	268.97092	0.11014
3	278.49626	-0.02274
3.25	288.09199	-0.07882
3.5	297.74179	-0.07444
3.75	307.40062	-0.05464
4	316.97643	-0.11148
4.25	326.39711	-0.31709
4.5	335.71723	-0.61689
4.75	345.01689	-0.93081
5	354.35141	-1.2035
5.25	363.7623	-1.3935
5.5	373.26031	-1.49005
5.75	382.85451	-1.48407
6	392.57795	-1.34254
6.25	402.44936	-1.04674
6.5	412.40617	-0.65924
6.75	422.3667	-0.26172
7	432.25418	0.06903
7.25	442.00954	0.27393
7.5	451.63968	0.3599
7.75	461.17028	0.35257
8	470.63603	0.28665
8.25	480.06759	0.19279
8.5	489.47034	0.07637
8.75	498.85119	-0.05573
9	508.24832	-0.16533
9.25	517.69161	-0.22255
9.5	527.1465	-0.26196
9.75	536.57045	-0.32612
10	545.95342	-0.42505
10.25	555.31569	-0.5385
10.5	564.76627	-0.55746
10.75	574.38895	-0.39815
11	584.07812	-0.16619
11.25	593.72446	0.0291
11.5	603.39327	0.25301
11.75	613.14772	0.5687
12	622.86775	0.8561
12.25	632.42168	0.98352
12.5	641.81455	0.95602
12.75	651.08364	0.81083
13	660.25825	0.57728
13.25	669.36798	0.28494
13.5	678.45141	-0.02761
13.75	687.54611	-0.32281
14	696.67648	-0.57627
14.25	705.86115	-0.76935
14.5	715.10877	-0.89342
14.75	724.40951	-0.95832
15	733.68971	-1.03772
15.25	742.8952	-1.18579
15.5	752.11359	-1.31492
15.75	761.43694	-1.33308
16	770.83308	-1.27243
16.25	780.25909	-1.17589
16.5	789.75325	-1.0052
16.75	799.34839	-0.72754
17	808.97456	-0.41287
17.25	818.56071	-0.13223
17.5	828.13427	0.1418
17.75	837.71782	0.43177
18	847.21608	0.64243
18.25	856.54256	0.68724
18.5	865.76368	0.63265
18.75	874.96423	0.56343
19	884.14949	0.48485
19.25	893.31337	0.3908
19.5	902.48368	0.30911
19.75	911.69079	0.27013
20	920.94125	0.28039
20.25	930.2123	0.31715
20.5	939.3878	0.26424
20.75	948.38105	0.03497
21	957.31651	-0.24622
21.25	966.3421	-0.43141
21.5	975.48833	-0.4901
21.75	984.74835	-0.42916
22	994.08311	-0.28761
22.25	1003.44742	-0.11068
22.5	1012.80354	0.06389
22.75	1022.11728	0.20191
23	1031.36117	0.27589
23.25	1040.49433	0.24496
23.5	1049.41564	0.00799
23.75	1058.0896	-0.47054
24	1066.80349	-0.90334
24.25	1075.8292	-1.01854
24.5	1085.05427	-0.9286
24.75	1094.29913	-0.8131
25	1103.50001	-0.73582
25.25	1112.64126	-0.7124
25.5	1121.78376	-0.68199
25.75	1130.96459	-0.60751
26	1140.04901	-0.62369
26.25	1148.92774	-0.83983
26.5	1157.76506	-1.09166
26.75	1166.73917	-1.20099
27	1175.81029	-1.20759
27.25	1184.91562	-1.17427
27.5	1194.11819	-1.03803
27.75	1203.47356	-0.74329
28	1212.8818	-0.39
28.25	1222.21411	-0.10696
28.5	1231.38193	0.01726
28.75	1240.36063	-0.04197
29	1249.34118	-0.0937
29.25	1258.49577	0.03426
29.5	1267.70599	0.2235
29.75	1276.8413	0.34345
30	1286.01322	0.50566
30.25	1295.32722	0.81556
30.5	1304.62236	1.11223
30.75	1313.7226	1.21961
31	1322.65777	1.16752
31.25	1331.49779	1.02588
31.5	1340.2669	0.81892
31.75	1348.97411	0.55564
32	1357.61302	0.22965
32.25	1366.1952	-0.14751
32.5	1374.81939	-0.47708
32.75	1383.57585	-0.66883
33	1392.43365	-0.75369
33.25	1401.33569	-0.78876
33.5	1410.24137	-0.81465
33.75	1419.11745	-0.86461
34	1427.94357	-0.959
34.25	1436.72694	-1.09062
34.5	1445.57206	-1.15497
34.75	1454.58009	-1.05092
35	1463.7415	-0.78798
35.25	1473.01317	-0.40927
35.5	1482.32824	0.01831
35.75	1491.6244	0.43247
36	1500.88139	0.81293
36.25	1510.07273	1.13322
36.5	1519.10507	1.29997
36.75	1527.91066	1.24542
37	1536.59102	1.07109
37.25	1545.26947	0.90031
37.5	1553.9872	0.77423
37.75	1562.741	0.68967
38	1571.43234	0.54805
38.25	1579.9917	0.27989
38.5	1588.5612	0.02728
38.75	1597.25783	-0.09279
39	1605.88659	-0.27534
39.25	1614.27025	-0.69759
39.5	1622.61469	-1.15367
39.75	1631.15413	-1.40937
40	1639.85288	-1.50039
40.25	1648.63588	-1.50178
40.5	1657.54053	-1.37615
40.75	1666.60982	-1.08054
41	1675.79655	-0.66212
41.25	1685.02073	-0.20092
41.5	1694.16125	0.18197
41.75	1703.1206	0.38901
42	1711.93661	0.45805
42.25	1720.6824	0.46218
42.5	1729.43663	0.48007
42.75	1738.25933	0.57174
43	1747.13043	0.71711
43.25	1756.01214	0.87839
43.5	1764.87601	1.02712
43.75	1773.69365	1.1349
44	1782.42773	1.1644
44.25	1791.04548	1.08285
44.5	1799.54137	0.8847
44.75	1807.94932	0.60388
45	1816.43404	0.40508
45.25	1825.12409	0.41685
45.5	1833.87275	0.49248
45.75	1842.52438	0.47631
46	1851.16284	0.45221
46.25	1859.88779	0.51982
46.5	1868.62258	0.60249
46.75	1877.27269	0.6057
47	1885.84848	0.53979
47.25	1894.37773	0.43253
47.5	1902.85313	0.27664
47.75	1911.2737	0.07109
48	1919.69868	-0.12486
48.25	1928.19315	-0.24613
48.5	1936.78518	-0.26468
48.75	1945.47674	-0.17854
49	1954.20239	-0.05314
49.25	1962.89362	0.04299
49.5	1971.53677	0.09619
49.75	1980.12824	0.10286
50	1988.64962	0.04457
50.25	1997.10364	-0.07596
50.5	2005.5923	-0.15671
50.75	2014.2098	-0.10349
51	2022.9198	0.04733
51.25	2031.6648	0.23825
51.5	2040.43323	0.45772
51.75	2049.22002	0.70064
52	2058.0001	0.94194
52.25	2066.72792	1.13607
52.5	2075.29608	1.17561
52.75	2083.62362	0.97961
53	2091.79736	0.63488
53.25	2099.93231	0.25642
53.5	2108.08848	-0.09576
53.75	2116.31736	-0.37017
54	2124.69149	-0.4943
54.25	2133.24964	-0.42937
54.5	2141.87457	-0.29261
54.75	2150.43396	-0.21637
55	2158.891	-0.23747
55.25	2167.25916	-0.34241
55.5	2175.65758	-0.41209
55.75	2184.18192	-0.35084
56	2192.72849	-0.26236
56.25	2201.18531	-0.25863
56.5	2209.60672	-0.28533
56.75	2218.0783	-0.25687
57	2226.64425	-0.12906
57.25	2235.29366	0.08718
57.5	2243.83655	0.20187
57.75	2252.10947	0.05155
58	2260.23413	-0.24208
58.25	2268.37977	-0.50976
58.5	2276.6206	-0.67732
58.75	2284.98225	-0.71911
59	2293.39123	-0.70865
59.25	2301.7866	-0.70686
59.5	2310.25682	-0.62529
59.75	2318.88607	-0.37978
60	2327.59204	-0.05264
60.25	2336.25582	0.23723
60.5	2344.77861	0.391
60.75	2353.10585	0.35413
61	2361.33992	0.22897
61.25	2369.61317	0.14787
61.5	2378.02098	0.20622
61.75	2386.61007	0.45073
62	2395.26949	0.77042
62.25	2403.85612	1.0222
62.5	2412.25603	1.09212
62.75	2420.41359	0.92454
63	2428.47728	0.66794
63.25	2436.59493	0.47014
63.5	2444.70762	0.27222
63.75	2452.74216	9.78322E-4
64	2460.77499	-0.26714
64.25	2468.90608	-0.43218
64.5	2477.17981	-0.44977
64.75	2485.60804	-0.30804
65	2494.12811	-0.06967
65.25	2502.65428	0.17961
65.5	2511.08295	0.33618
65.75	2519.33731	0.32323
66	2527.4655	0.1889
66.25	2535.54781	0.01347
66.5	2543.66808	-0.11924
66.75	2551.8838	-0.15172
67	2560.14364	-0.13532
67.25	2568.40072	-0.11692
67.5	2576.73489	-0.01668
67.75	2585.21316	0.23242
68	2593.72454	0.51937
68.25	2602.12507	0.70021
68.5	2610.31702	0.67719
68.75	2618.26628	0.41622
69	2626.147	0.09142
69.25	2634.14226	-0.11411
69.5	2642.26262	-0.18984
69.75	2650.46606	-0.17777
70	2658.67274	-0.15775
70.25	2666.82199	-0.19049
70.5	2674.96743	-0.22232
70.75	2683.15594	-0.20642
71	2691.29284	-0.23743
71.25	2699.3057	-0.38781
71.5	2707.35248	-0.49959
71.75	2715.5823	-0.42368
72	2723.8784	-0.27681
72.25	2732.09673	-0.20306
72.5	2740.24973	-0.18999
72.75	2748.37923	-0.19578
73	2756.48792	-0.21773
73.25	2764.56796	-0.26369
73.5	2772.60844	-0.34459
73.75	2780.59854	-0.47124
74	2788.53089	-0.65101
74.25	2796.41777	-0.87164
74.5	2804.34647	-1.04584
74.75	2812.39371	-1.09689
75	2820.51899	-1.06531
75.25	2828.67385	-0.99954
75.5	2836.8953	-0.86259
75.75	2845.20245	-0.63535
76	2853.45747	-0.45567
76.25	2861.54137	-0.44253
76.5	2869.56764	-0.48245
76.75	2877.67003	-0.44168
77	2885.83092	-0.33784
77.25	2894.00471	-0.21655
77.5	2902.18528	-0.08393
77.75	2910.37525	0.06264
78	2918.57285	0.22139
78.25	2926.77077	0.38498
78.5	2934.9438	0.52823
78.75	2943.0559	0.61507
79	2951.04546	0.5839
79.25	2958.8666	0.38882
79.5	2966.56187	0.07239
79.75	2974.20884	-0.28784
80	2981.9366	-0.56276
80.25	2989.8532	-0.64436
80.5	2997.93091	-0.56035
80.75	3006.10807	-0.37239
81	3014.32314	-0.14205
81.25	3022.51234	0.06691
81.5	3030.60304	0.18184
81.75	3038.5475	0.15501
82	3046.40645	0.04712
82.25	3054.2657	-0.056
82.5	3062.20299	-0.07663
82.75	3070.26282	0.02974
83	3078.36475	0.18265
83.25	3086.41247	0.2858
83.5	3094.37123	0.30442
83.75	3102.24016	0.23764
84	3110.09248	0.15868
84.25	3117.99437	0.13372
84.5	3125.90973	0.12665
84.75	3133.79445	0.09334
85	3141.67447	0.05975
85.25	3149.58701	0.06308
85.5	3157.54419	0.11545
85.75	3165.54482	0.21567
86	3173.55948	0.3343
86.25	3181.56526	0.44845
86.5	3189.59352	0.58945
86.75	3197.66669	0.77974
87	3205.71742	0.95196
87.25	3213.68802	1.04842
87.5	3221.64935	1.13997
87.75	3229.69151	1.31671
88	3237.85298	1.61712
88.25	3246.12468	2.0321
88.5	3254.35876	2.41381
88.75	3262.41528	2.6223
89	3270.3247	2.68801
89.25	3278.12877	2.65272
89.5	3285.74405	2.43296
89.75	3293.11014	1.96833
90	3300.38401	1.4158
90.25	3307.7314	0.9411
90.5	3315.13575	0.52766
90.75	3322.55584	0.13428
91	3330.03427	-0.19647
91.25	3337.60718	-0.42845
91.5	3345.20114	-0.63508
